t,theta,omega
0.0,2.0,0.0
0.001,2.0,-0.0033858916831246088
0.002,1.9999966124148065,-0.0067717833662492176
0.003,1.9999898372444196,-0.010157680279256821
0.004,1.999979674483607,-0.013543587651913574
0.005,1.9999661241219033,-0.01692951071376004
0.006,1.9999491861436118,-0.020315454694002415
0.007,1.9999288605278036,-0.02370142482140377
0.008,1.9999051472483185,-0.027087426324175268
0.009,1.9998780462737653,-0.03047346442986738
0.01,1.999847557567523,-0.0338595443652611
0.011,1.9998136810877407,-0.037245671356259114
0.012,1.9997764167873395,-0.040631850627777
0.013,1.9997357646140128,-0.04401808740363438
0.014,1.9996917245102273,-0.04740438690644605
0.015,1.9996442964132246,-0.05079075435751311
0.016,1.9995934802550226,-0.054177194976714055
0.017,1.9995392759624167,-0.05756371398239586
0.018,1.9994816834569809,-0.060950316591265014
0.019,1.9994207026550703,-0.06433700801827853
0.02,1.9993563334678224,-0.06772379347653495
0.021,1.999288575801159,-0.07111067817716529
0.022,1.9992174295557879,-0.07449766732922394
0.023,1.9991428946272054,-0.07788476613957959
0.024,1.9990649709056987,-0.08127197981280604
0.025,1.9989836582763472,-0.084659313551073
0.026,1.9988989566190258,-0.0880467725540369
0.027,1.9988108658084074,-0.09143436201873154
0.028,1.9987193857139647,-0.09482208713945879
0.029,1.9986245161999738,-0.09820995310767924
0.03,1.9985262571255171,-0.10159796511190275
0.031,1.9984246083444854,-0.10498612833757895
0.032,1.9983195697055816,-0.10837444796698774
0.033,1.9982111410523236,-0.11176292917912968
0.034,1.9980993222230479,-0.11515157714961635
0.035,1.9979841130509128,-0.11854039705056067
0.036,1.997865513363902,-0.12192939405046707
0.037,1.9977435229848277,-0.12531857331412172
0.038,1.9976181417313352,-0.12870794000248256
0.039,1.997489369415906,-0.13209749927256947
0.04,1.9973572058458617,-0.13548725627735406
0.041,1.9972216508233693,-0.1388772161656497
0.042,1.9970827041454435,-0.1422673840820012
0.043,1.9969403656039522,-0.1456577651665748
0.044,1.9967946349856205,-0.14904836455504758
0.045,1.9966455120720354,-0.15243918737849715
0.046,1.9964929966396503,-0.1558302387632912
0.047,1.9963370884597893,-0.15922152383097685
0.048,1.9961777872986526,-0.16261304769817006
0.049,1.9960150929173215,-0.16600481547644483
0.05,1.9958490050717628,-0.1693968322722224
0.051,1.9956795235128344,-0.1727891031866603
0.052,1.9955066479862906,-0.17618163331554135
0.053,1.9953303782327874,-0.17957442774916252
0.054,1.9951507139878877,-0.18296749157222375
0.055,1.9949676549820672,-0.18636082986371666
0.056,1.9947812009407204,-0.1897544476968131
0.057,1.994591351584166,-0.19314835013875364
0.058,1.9943981066276526,-0.19654254225073603
0.059,1.9942014657813651,-0.19993702908780342
0.06,1.9940014287504315,-0.20333181569873252
0.061,1.9937979952349276,-0.20672690712592168
0.062,1.9935911649298848,-0.2101223084052789
0.063,1.993380937525296,-0.21351802456610963
0.064,1.9931673127061222,-0.21691406063100446
0.065,1.9929502901522993,-0.2203104216157268
0.066,1.992729869538745,-0.22370711252910033
0.067,1.9925060505353656,-0.22710413837289636
0.068,1.992278832807063,-0.2305015041417211
0.069,1.9920482160137425,-0.2338992148229028
0.07,1.991814199810319,-0.23729727539637868
0.071,1.991576783846725,-0.24069569083458192
0.072,1.9913359677679188,-0.2440944661023283
0.073,1.9910917512138906,-0.2474936061567028
0.074,1.9908441338196714,-0.25089311594694613
0.075,1.9905931152153402,-0.2542930004143411
0.076,1.9903386950260327,-0.25769326449209873
0.077,1.9900808728719483,-0.2610939131052444
0.078,1.9898196483683597,-0.26449495117050364
0.079,1.9895550211256199,-0.26789638359618817
0.08,1.989286990749171,-0.27129821528208126
0.081,1.9890155568395533,-0.2747004511193234
0.082,1.9887407189924133,-0.2781030959902975
0.083,1.9884624767985126,-0.2815061547685142
0.084,1.988180829843737,-0.284909632318497
0.085,1.987895777709105,-0.28831353349566685
0.086,1.987607319970778,-0.2917178631462272
0.087,1.987315456200068,-0.29512262610704837
0.088,1.9870201859634482,-0.29852782720555204
0.089,1.9867215088225616,-0.3019334712595956
0.09,1.9864194243342312,-0.30533956307735605
0.091,1.9861139320504693,-0.3087461074572142
0.092,1.9858050315184874,-0.3121531091876381
0.093,1.9854927222807064,-0.31556057304706703
0.094,1.9851770038747658,-0.3189685038037946
0.095,1.9848578758335351,-0.3223769062158522
0.096,1.984535337685123,-0.32578578503089195
0.097,1.984209388952888,-0.3291951449860699
0.098,1.9838800291554495,-0.33260499080792844
0.099,1.9835472578066977,-0.336015327212279
0.1,1.983211074415805,-0.3394261589040845
0.101,1.9828714784872359,-0.3428374905773415
0.102,1.982528469520759,-0.34624932691496213
0.103,1.9821820470114575,-0.34966167258865616
0.104,1.9818322104497406,-0.3530745322588124
0.105,1.9814789593213549,-0.3564879105743803
0.106,1.9811222931073953,-0.3599018121727512
0.107,1.9807622112843175,-0.3633162416796394
0.108,1.980398713323949,-0.3667312037089631
0.109,1.9800317986935005,-0.37014670286272516
0.11,1.9796614668555794,-0.3735627437308934
0.111,1.9792877172682002,-0.376979330891281
0.112,1.9789105493847974,-0.38039646890942674
0.113,1.9785299626542379,-0.3838141623384747
0.114,1.9781459565208328,-0.3872324157190542
0.115,1.9777585304243506,-0.39065123357915904
0.116,1.9773676838000294,-0.394070620434027
0.117,1.97697341607859,-0.39749058078601884
0.118,1.976575726686248,-0.40091111912449723
0.119,1.9761746150447284,-0.4043322399257054
0.12,1.9757700805712768,-0.40775394765264555
0.121,1.975362122678674,-0.41117624675495723
0.122,1.9749507407752487,-0.41459914166879525
0.123,1.9745359342648914,-0.41802263681670754
0.124,1.974117702547068,-0.4214467366075128
0.125,1.973696045016833,-0.4248714454361778
0.126,1.973270961064844,-0.42829676768369457
0.127,1.9728424500773754,-0.4317227077169574
0.128,1.9724105114363324,-0.43514926988863956
0.129,1.9719751445192653,-0.4385764585370696
0.13,1.971536348699384,-0.44200427798610786
0.131,1.9710941233455725,-0.4454327325450224
0.132,1.9706484678224034,-0.44886182650836487
0.133,1.9701993814901524,-0.4522915641558459
0.134,1.9697468637048132,-0.4557219497522108
0.135,1.969290913818113,-0.45915298754711426
0.136,1.9688315311775269,-0.46258468177499545
0.137,1.9683687151262939,-0.46601703665495275
0.138,1.9679024650034311,-0.469450056390618
0.139,1.9674327801437506,-0.4728837451700307
0.14,1.9669596598778738,-0.4763181071655119
0.141,1.966483103532248,-0.47975314653353796
0.142,1.966003110429162,-0.48318886741461403
0.143,1.9655196798867616,-0.48662527393314714
0.144,1.9650328112190665,-0.49006237019731913
0.145,1.964542503735986,-0.49350016029895943
0.146,1.9640487567433358,-0.4969386483134175
0.147,1.9635515695428538,-0.500377838299435
0.148,1.9630509414322175,-0.5038177342990179
0.149,1.9625468717050603,-0.5072583403373079
0.15,1.962039359650988,-0.5106996604224541
0.151,1.961528404555597,-0.514141698545484
0.152,1.96101400570049,-0.5175844586801748
0.153,1.9604961623632942,-0.5210279447829237
0.154,1.9599748738176785,-0.5244721607926184
0.155,1.959450139333371,-0.5279171106305075
0.156,1.9589219581761763,-0.53136279820007
0.157,1.9583903296079939,-0.5348092273868854
0.158,1.9578552528868356,-0.5382564020585027
0.159,1.9573167272668437,-0.5417043260643096
0.16,1.9567747519983092,-0.5451530032354016
0.161,1.95622932632769,-0.5486024373844501
0.162,1.9556804494976296,-0.5520526323055712
0.163,1.9551281207469755,-0.5555035917741934
0.164,1.9545723393107977,-0.5589553195469256
0.165,1.9540131044204079,-0.5624078193614244
0.166,1.953450415303378,-0.5658610949362615
0.167,1.95288427118356,-0.5693151499707905
0.168,1.952314671281104,-0.5727699881450138
0.169,1.9517416148124787,-0.5762256131194486
0.17,1.9511651009904905,-0.5796820285349937
0.171,1.9505851290243028,-0.5831392380127947
0.172,1.9500016981194561,-0.5865972451541097
0.173,1.949414807477888,-0.590056053540175
0.174,1.9488244562979533,-0.5935156667320696
0.175,1.9482306437744432,-0.5969760882705801
0.176,1.947633369098607,-0.6004373216760657
0.177,1.9470326314581714,-0.6038993704483212
0.178,1.9464284300373622,-0.6073622380664421
0.179,1.9458207640169238,-0.6108259279886873
0.18,1.9452096325741408,-0.614290443652343
0.181,1.9445950348828587,-0.6177557884735853
0.182,1.9439769701135052,-0.6212219658473431
0.183,1.9433554374331115,-0.6246889791471609
0.184,1.9427304360053332,-0.6281568317250604
0.185,1.9421019649904727,-0.6316255269114026
0.186,1.9414700235455,-0.6350950680147494
0.187,1.940834610824075,-0.6385654583217247
0.188,1.9401957259765692,-0.6420367010968759
0.189,1.9395533681500883,-0.6455087995825342
0.19,1.9389075364884936,-0.6489817569986747
0.191,1.938258230132425,-0.6524555765427772
0.192,1.9376054482193235,-0.6559302613896857
0.193,1.9369491898834534,-0.6594058146914679
0.194,1.9362894542559255,-0.6628822395772742
0.195,1.9356262404647198,-0.6663595391531971
0.196,1.9349595476347086,-0.6698377165021296
0.197,1.93428937488768,-0.6733167746836235
0.198,1.9336157213423608,-0.6767967167337473
0.199,1.9329385861144404,-0.6802775456649442
0.2,1.932257968316594,-0.6837592644658895
0.201,1.9315738670585068,-0.6872418761013476
0.202,1.9308862814468977,-0.6907253835120286
0.203,1.9301952105855436,-0.6942097896144455
0.204,1.929500653575303,-0.6976950973007697
0.205,1.9288026095141413,-0.7011813094386875
0.206,1.9281010774971543,-0.7046684288712552
0.207,1.9273960566165937,-0.7081564584167549
0.208,1.9266875459618915,-0.7116454008685491
0.209,1.9259755446196845,-0.7151352589949357
0.21,1.9252600516738403,-0.7186260355390021
0.211,1.9245410662054818,-0.7221177332184796
0.212,1.923818587293013,-0.7256103547255972
0.213,1.9230926140121438,-0.7291039027269347
0.214,1.9223631454359171,-0.7325983798632763
0.215,1.921630180634733,-0.736093788749463
0.216,1.9208937186763753,-0.7395901319742456
0.217,1.9201537586260384,-0.743087412100137
0.218,1.9194102995463527,-0.7465856316632636
0.219,1.9186633404974107,-0.7500847931732176
0.22,1.9179128805367947,-0.7535848991129077
0.221,1.9171589187196025,-0.7570859519384107
0.222,1.9164014540984748,-0.7605879540788216
0.223,1.9156404857236218,-0.7640909079361048
0.224,1.9148760126428506,-0.7675948158849433
0.225,1.9141080339015923,-0.7710996802725892
0.226,1.9133365485429301,-0.7746055034187129
0.227,1.9125615556076256,-0.7781122876152523
0.228,1.9117830541341478,-0.7816200351262615
0.229,1.9110010431587006,-0.7851287481877597
0.23,1.9102155217152503,-0.788638429007579
0.231,1.9094264888355548,-0.7921490797652126
0.232,1.908633943549191,-0.7956607026116628
0.233,1.907837884883584,-0.7991732996692875
0.234,1.907038311864035,-0.8026868730316479
0.235,1.9062352235137514,-0.8062014247633547
0.236,1.9054286188538743,-0.8097169568999149
0.237,1.9046184969035085,-0.8132334714475776
0.238,1.9038048566797514,-0.8167509703831802
0.239,1.9029876971977229,-0.8202694556539933
0.24,1.9021670174705945,-0.8237889291775662
0.241,1.901342816509619,-0.8273093928415716
0.242,1.9005150933241606,-0.8308308485036503
0.243,1.8996838469217254,-0.8343532979912556
0.244,1.8988490763079906,-0.8378767431014966
0.245,1.8980107804868356,-0.8414011856009828
0.246,1.8971689584603724,-0.8449266272256662
0.247,1.896323609228976,-0.8484530696806858
0.248,1.8954747317913152,-0.8519805146402089
0.249,1.8946223251443846,-0.8555089637472743
0.25,1.893766388283534,-0.8590384186136344
0.251,1.8929069202025013,-0.8625688808195968
0.252,1.892043919893443,-0.8661003519138657
0.253,1.891177386346966,-0.8696328334133835
0.254,1.89030731855216,-0.8731663268031713
0.255,1.8894337154966283,-0.8767008335361698
0.256,1.888556576166521,-0.8802363550330793
0.257,1.8876758995465668,-0.8837728926822
0.258,1.886791684620105,-0.8873104478392717
0.259,1.8859039303691187,-0.8908490218273127
0.26,1.8850126357742676,-0.8943886159364598
0.261,1.8841177998149201,-0.8979292314238062
0.262,1.8832194214691873,-0.9014708695132407
0.263,1.8823174997139556,-0.9050135313952855
0.264,1.8814120335249203,-0.9085572182269344
0.265,1.8805030218766192,-0.9121019311314902
0.266,1.8795904637424663,-0.9156476711984023
0.267,1.8786743580947851,-0.9191944394831035
0.268,1.877754703904844,-0.9227422370068471
0.269,1.8768315001428888,-0.9262910647565429
0.27,1.8759047457781783,-0.9298409236845937
0.271,1.8749744397790187,-0.9333918147087313
0.272,1.8740405811127974,-0.9369437387118521
0.273,1.873103168746019,-0.940496696541852
0.274,1.872162201644339,-0.9440506890114618
0.275,1.871217678772601,-0.9476057168980822
0.276,1.8702695990948697,-0.9511617809436176
0.277,1.869317961574468,-0.9547188818543112
0.278,1.868362765174012,-0.958277020300578
0.279,1.8674040088554476,-0.9618361969168393
0.28,1.8664416915800852,-0.9653964123013553
0.281,1.865475812308637,-0.9689576670160588
0.282,1.8645063700012532,-0.9725199615863878
0.283,1.8635333636175577,-0.976083296501118
0.284,1.8625567921166861,-0.9796476722121953
0.285,1.8615766544573213,-0.9832130891345674
0.286,1.8605929495977314,-0.986779547646016
0.287,1.859605676495806,-0.9903470480869883
0.288,1.858614834109095,-0.9939155907604276
0.289,1.857620421394844,-0.997485175931605
0.29,1.8566224373100342,-1.0010558038279498
0.291,1.855620880811419,-1.00462747463888
0.292,1.8546157508555619,-1.0082001885156322
0.293,1.8536070463988754,-1.011773945571092
0.294,1.8525947663976594,-1.0153487458796233
0.295,1.8515789098081388,-1.0189245894768981
0.296,1.850559475586503,-1.022501476359725
0.297,1.8495364626889443,-1.0260794064858794
0.298,1.8485098700716982,-1.0296583797739303
0.299,1.8474796966910807,-1.0332383961030707
0.3,1.846445941503529,-1.0368194553129444
0.301,1.845408603465641,-1.0404015572034748
0.302,1.844367681534214,-1.0439847015346924
0.303,1.8433231746662866,-1.0475688880265617
0.304,1.8422750818191764,-1.0511541163588092
0.305,1.8412234019505223,-1.0547403861707503
0.306,1.8401681340183234,-1.058327697061116
0.307,1.8391092769809805,-1.061916048587879
0.308,1.838046829797337,-1.065505440268081
0.309,1.8369807914267189,-1.0690958715776582
0.31,1.835911160828977,-1.072687341951267
0.311,1.8348379369645278,-1.0762798507821103
0.312,1.8337611187943943,-1.0798733974217627
0.313,1.8326807052802487,-1.0834679811799957
0.314,1.8315966953844538,-1.0870636013246024
0.315,1.8305090880701047,-1.0906602570812236
0.316,1.8294178823010716,-1.0942579476331709
0.317,1.8283230770420416,-1.097856672121252
0.318,1.8272246712585611,-1.101456429643595
0.319,1.8261226639170796,-1.105057219255472
0.32,1.825017053984991,-1.1086590399691232
0.321,1.823907840430678,-1.1122618907535806
0.322,1.8227950222235547,-1.1158657705344914
0.323,1.8216785983341097,-1.1194706781939414
0.324,1.8205585677339504,-1.1230766125702778
0.325,1.8194349293958465,-1.1266835724579327
0.326,1.8183076822937736,-1.1302915566072453
0.327,1.8171768254029579,-1.1339005637242847
0.328,1.8160423576999198,-1.1375105924706725
0.329,1.8149042781625193,-1.141121641463405
0.33,1.8137625857699995,-1.1447337092746743
0.331,1.8126172795030322,-1.1483467944316923
0.332,1.8114683583437632,-1.1519608954165104
0.333,1.8103158212758563,-1.1555760106658424
0.334,1.8091596672845398,-1.1591921385708854
0.335,1.8079998953566514,-1.1628092774771412
0.336,1.8068365044806842,-1.166427425684238
0.337,1.8056694936468327,-1.1700465814457501
0.338,1.8044988618470386,-1.1736667429690206
0.339,1.8033246080750367,-1.177287908414981
0.34,1.8021467313264026,-1.1809100758979718
0.341,1.800965230598598,-1.1845332434855638
0.342,1.7997801048910178,-1.1881574091983778
0.343,1.7985913532050377,-1.191782571009905
0.344,1.7973989745440608,-1.1954087268463278
0.345,1.7962029679135652,-1.1990358745863385
0.346,1.795003332321151,-1.202664012060961
0.347,1.7938000667765885,-1.2062931370533692
0.348,1.7925931702918663,-1.2099232472987071
0.349,1.7913826418812384,-1.2135543404839095
0.35,1.7901684805612734,-1.21718641424752
0.351,1.7889506853509023,-1.2208194661795113
0.352,1.7877292552714676,-1.224453493821105
0.353,1.7865041893467717,-1.2280884946645898
0.354,1.785275486603126,-1.231724466153142
0.355,1.7840431460693997,-1.2353614056806435
0.356,1.78280716677707,-1.238999310591502
0.357,1.7815675477602704,-1.2426381781804694
0.358,1.7803242880558414,-1.246278005692461
0.359,1.7790773867033798,-1.249918790322374
0.36,1.777826842745289,-1.2535605292149077
0.361,1.7765726552268293,-1.2572032194643805
0.362,1.7753148231961675,-1.2608468581145507
0.363,1.774053345704429,-1.2644914421584335
0.364,1.772788221805747,-1.2681369685381212
0.365,1.7715194505573142,-1.271783434144601
0.366,1.7702470310194343,-1.275430835817574
0.367,1.7689709622555725,-1.2790791703452746
0.368,1.7676912433324075,-1.282728434464288
0.369,1.7664078733198831,-1.2863786248593696
0.37,1.76512085129126,-1.2900297381632637
0.371,1.7638301763231674,-1.2936817709565223
0.372,1.7625358474956565,-1.2973347197673235
0.373,1.7612378638922515,-1.3009885810712905
0.374,1.7599362246000025,-1.30464335129131
0.375,1.7586309287095392,-1.3082990267973518
0.376,1.7573219753151228,-1.3119556039062865
0.377,1.7560093635146992,-1.3156130788817055
0.378,1.7546930924099529,-1.319271447933739
0.379,1.75337316110636,-1.3229307072188756
0.38,1.7520495687132427,-1.3265908528397812
0.381,1.7507223143438213,-1.3302518808451174
0.382,1.7493913971152704,-1.3339137872293618
0.383,1.7480568161487715,-1.3375765679326264
0.384,1.7467185705695683,-1.3412402188404768
0.385,1.745376659507021,-1.3449047357837527
0.386,1.7440310820946612,-1.3485701145383857
0.387,1.7426818374702462,-1.3522363508252204
0.388,1.741328924775815,-1.3559034403098331
0.389,1.7399723431577432,-1.359571378602352
0.39,1.7386120917667982,-1.3632401612572769
0.391,1.7372481697581954,-1.3669097837732993
0.392,1.7358805762916536,-1.3705802415931228
0.393,1.734509310531451,-1.3742515301032827
0.394,1.733134371646482,-1.377923644633967
0.395,1.731755758810313,-1.381596580458837
0.396,1.7303734712012389,-1.3852703327948477
0.397,1.72898750800234,-1.3889448968020683
0.398,1.7275978684015394,-1.3926202675835044
0.399,1.7262045515916593,-1.396296440184918
0.4,1.7248075567704786,-1.3999734095946497
0.401,1.7234068831407905,-1.4036511707434396
0.402,1.7220025299104598,-1.4073297185042495
0.403,1.720594496292481,-1.411009047692085
0.404,1.7191827815050367,-1.414689153063817
0.405,1.7177673847715544,-1.418370029318005
0.406,1.7163483053207662,-1.4220516710947189
0.407,1.7149255423867666,-1.425734072975362
0.408,1.7134990952090716,-1.4294172294824943
0.409,1.712068963032677,-1.4331011350796554
0.41,1.7106351451081185,-1.4367857841711889
0.411,1.7091976406915295,-1.4404711711020648
0.412,1.7077564490447017,-1.4441572901577047
0.413,1.7063115694351443,-1.4478441355638059
0.414,1.7048630011361434,-1.4515317014861655
0.415,1.7034107434268226,-1.455219982030506
0.416,1.7019547955922023,-1.4589089712423
0.417,1.7004951569232605,-1.4625986631065957
0.418,1.6990318267169935,-1.4662890515478428
0.419,1.6975648042764757,-1.4699801304297186
0.42,1.6960940889109213,-1.4736718935549546
0.421,1.6946196799357447,-1.477364334665163
0.422,1.6931415766726217,-1.4810574474406637
0.423,1.691659778449551,-1.484751225500312
0.424,1.690174284600916,-1.488445662401326
0.425,1.6886850944675456,-1.4921407516391156
0.426,1.6871922073967767,-1.49583648664711
0.427,1.6856956227425162,-1.4995328607965874
0.428,1.684195339865303,-1.5032298673965037
0.429,1.6826913581323701,-1.5069274996933224
0.43,1.681183676917708,-1.5106257508708452
0.431,1.6796722956021262,-1.5143246140500413
0.432,1.678157213573317,-1.5180240822888798
0.433,1.676638430225918,-1.5217241485821598
0.434,1.675115944961576,-1.5254248058613429
0.435,1.673589757189009,-1.5291260469943853
0.436,1.6720598663240716,-1.53282786478557
0.437,1.6705262717898168,-1.536530251975341
0.438,1.6689889730165615,-1.5402332012401356
0.439,1.6674479694419493,-1.5439367051922197
0.44,1.6659032605110158,-1.5476407563795218
0.441,1.6643548456762518,-1.551345347285468
0.442,1.6628027243976689,-1.5550504703288177
0.443,1.6612468961428632,-1.5587561178635003
0.444,1.6596873603870814,-1.5624622821784508
0.445,1.6581241166132847,-1.5661689554974476
0.446,1.6565571643122146,-1.5698761299789505
0.447,1.6549865029824575,-1.5735837977159384
